Energy[MeV] Light output
    0.0000     0.0000
    0.0100     0.0006
    0.0200     0.0016
    0.0300     0.0024
    0.0400     0.0032
    0.0500     0.0042
    0.0600     0.0051
    0.0700     0.0058
    0.0800     0.0069
    0.0900     0.0080
    0.1000     0.0090
    0.1100     0.0099
    0.1200     0.0109
    0.1300     0.0121
    0.1400     0.0131
    0.1500     0.0141
    0.1600     0.0152
    0.1700     0.0164
    0.1800     0.0174
    0.1900     0.0186
    0.2000     0.0198
    0.2100     0.0211
    0.2200     0.0223
    0.2300     0.0237
    0.2400     0.0250
    0.2500     0.0263
    0.2600     0.0277
    0.2700     0.0291
    0.2800     0.0305
    0.2900     0.0319
    0.3000     0.0334
    0.3100     0.0347
    0.3200     0.0364
    0.3300     0.0378
    0.3400     0.0393
    0.3500     0.0409
    0.3600     0.0425
    0.3700     0.0441
    0.3800     0.0457
    0.3900     0.0474
    0.4000     0.0490
    0.4100     0.0509
    0.4200     0.0528
    0.4300     0.0545
    0.4400     0.0563
    0.4500     0.0582
    0.4600     0.0601
    0.4700     0.0621
    0.4800     0.0642
    0.4900     0.0661
    0.5000     0.0680
    0.5100     0.0702
    0.5200     0.0724
    0.5300     0.0744
    0.5400     0.0766
    0.5500     0.0787
    0.5600     0.0808
    0.5700     0.0830
    0.5800     0.0853
    0.5900     0.0876
    0.6000     0.0899
    0.6200     0.0946
    0.6400     0.0995
    0.6600     0.1046
    0.6800     0.1097
    0.7000     0.1149
    0.7200     0.1203
    0.7400     0.1258
    0.7600     0.1315
    0.7800     0.1373
    0.8000     0.1432
    0.8200     0.1490
    0.8400     0.1546
    0.8600     0.1606
    0.8800     0.1665
    0.9000     0.1726
    0.9200     0.1789
    0.9400     0.1851
    0.9600     0.1915
    0.9800     0.1980
    1.0000     0.2046
    1.0200     0.2111
    1.0400     0.2175
    1.0600     0.2242
    1.0800     0.2310
    1.1000     0.2378
    1.1200     0.2446
    1.1400     0.2515
    1.1600     0.2585
    1.1800     0.2656
    1.2000     0.2727
    1.2200     0.2799
    1.2400     0.2871
    1.2600     0.2944
    1.2800     0.3019
    1.3000     0.3093
    1.3200     0.3169
    1.3400     0.3246
    1.3600     0.3324
    1.3800     0.3402
    1.4000     0.3481
    1.4200     0.3559
    1.4400     0.3634
    1.4600     0.3712
    1.4800     0.3788
    1.5000     0.3867
    1.5200     0.3942
    1.5400     0.4013
    1.5600     0.4085
    1.5800     0.4156
    1.6000     0.4227
    1.6200     0.4310
    1.6400     0.4393
    1.6600     0.4477
    1.6800     0.4558
    1.7000     0.4643
    1.7200     0.4720
    1.7400     0.4798
    1.7600     0.4876
    1.7800     0.4953
    1.8000     0.5031
    1.8200     0.5116
    1.8400     0.5203
    1.8600     0.5288
    1.8800     0.5375
    1.9000     0.5461
    1.9200     0.5548
    1.9400     0.5636
    1.9600     0.5725
    1.9800     0.5813
    2.0000     0.5902
    2.0200     0.5993
    2.0400     0.6083
    2.0600     0.6174
    2.0800     0.6265
    2.1000     0.6356
    2.1200     0.6449
    2.1400     0.6541
    2.1600     0.6634
    2.1800     0.6727
    2.2000     0.6820
    2.2200     0.6915
    2.2400     0.7007
    2.2600     0.7100
    2.2800     0.7194
    2.3000     0.7287
    2.3200     0.7382
    2.3400     0.7479
    2.3600     0.7575
    2.3800     0.7671
    2.4000     0.7768
    2.4200     0.7862
    2.4400     0.7956
    2.4600     0.8053
    2.4800     0.8149
    2.5000     0.8243
    2.5200     0.8341
    2.5400     0.8441
    2.5600     0.8539
    2.5800     0.8637
    2.6000     0.8737
    2.6200     0.8835
    2.6400     0.8932
    2.6600     0.9031
    2.6800     0.9129
    2.7000     0.9228
    2.7200     0.9327
    2.7400     0.9427
    2.7600     0.9526
    2.7800     0.9626
    2.8000     0.9729
    2.8200     0.9828
    2.8400     0.9929
    2.8600     1.0030
    2.8800     1.0130
    2.9000     1.0233
    2.9200     1.0336
    2.9400     1.0443
    2.9600     1.0547
    2.9800     1.0652
    3.0000     1.0757
    3.0200     1.0861
    3.0400     1.0964
    3.0600     1.1068
    3.0800     1.1174
    3.1000     1.1278
    3.1200     1.1384
    3.1400     1.1489
    3.1600     1.1594
    3.1800     1.1701
    3.2000     1.1807
    3.2200     1.1914
    3.2400     1.2021
    3.2600     1.2128
    3.2800     1.2237
    3.3000     1.2345
    3.3200     1.2453
    3.3400     1.2562
    3.3600     1.2671
    3.3800     1.2781
    3.4000     1.2891
    3.4200     1.3000
    3.4400     1.3111
    3.4600     1.3221
    3.4800     1.3333
    3.5000     1.3445
    3.5200     1.3557
    3.5400     1.3668
    3.5600     1.3779
    3.5800     1.3893
    3.6000     1.4005
    3.6200     1.4118
    3.6400     1.4230
    3.6600     1.4344
    3.6800     1.4457
    3.7000     1.4569
    3.7200     1.4683
    3.7400     1.4798
    3.7600     1.4911
    3.7800     1.5026
    3.8000     1.5140
    3.8200     1.5254
    3.8400     1.5368
    3.8600     1.5485
    3.8800     1.5599
    3.9000     1.5713
    3.9200     1.5829
    3.9400     1.5943
    3.9600     1.6057
    3.9800     1.6173
    4.0000     1.6290
    4.0200     1.6406
    4.0400     1.6522
    4.0600     1.6638
    4.0800     1.6755
    4.1000     1.6871
    4.1200     1.6988
    4.1400     1.7106
    4.1600     1.7223
    4.1800     1.7340
    4.2000     1.7457
    4.2200     1.7574
    4.2400     1.7694
    4.2600     1.7809
    4.2800     1.7928
    4.3000     1.8047
    4.3200     1.8162
    4.3400     1.8281
    4.3600     1.8400
    4.3800     1.8518
    4.4000     1.8636
    4.4200     1.8754
    4.4400     1.8873
    4.4600     1.8992
    4.4800     1.9110
    4.5000     1.9231
    4.5200     1.9347
    4.5400     1.9466
    4.5600     1.9583
    4.5800     1.9702
    4.6000     1.9822
    4.6200     1.9940
    4.6400     2.0059
    4.6600     2.0178
    4.6800     2.0297
    4.7000     2.0417
    4.7200     2.0537
    4.7400     2.0656
    4.7600     2.0776
    4.7800     2.0896
    4.8000     2.1014
    4.8200     2.1136
    4.8400     2.1257
    4.8600     2.1375
    4.8800     2.1497
    4.9000     2.1617
    4.9200     2.1737
    4.9400     2.1859
    4.9600     2.1980
    4.9800     2.2102
    5.0000     2.2222
    5.0200     2.2344
    5.0400     2.2464
    5.0600     2.2588
    5.0800     2.2709
    5.1000     2.2832
    5.1200     2.2953
    5.1400     2.3077
    5.1600     2.3198
    5.1800     2.3322
    5.2000     2.3444
    5.2200     2.3567
    5.2400     2.3692
    5.2600     2.3814
    5.2800     2.3937
    5.3000     2.4061
    5.3200     2.4185
    5.3400     2.4309
    5.3600     2.4432
    5.3800     2.4557
    5.4000     2.4683
    5.4200     2.4807
    5.4400     2.4931
    5.4600     2.5056
    5.4800     2.5180
    5.5000     2.5306
    5.5200     2.5431
    5.5400     2.5555
    5.5600     2.5680
    5.5800     2.5805
    5.6000     2.5931
    5.6200     2.6056
    5.6400     2.6181
    5.6600     2.6306
    5.6800     2.6432
    5.7000     2.6558
    5.7200     2.6683
    5.7400     2.6810
    5.7600     2.6937
    5.7800     2.7063
    5.8000     2.7189
    5.8200     2.7316
    5.8400     2.7442
    5.8600     2.7571
    5.8800     2.7699
    5.9000     2.7825
    5.9200     2.7953
    5.9400     2.8081
    5.9600     2.8210
    5.9800     2.8337
    6.0000     2.8465
    6.0200     2.8594
    6.0400     2.8724
    6.0600     2.8854
    6.0800     2.8985
    6.1000     2.9113
    6.1200     2.9244
    6.1400     2.9373
    6.1600     2.9504
    6.1800     2.9635
    6.2000     2.9765
    6.2200     2.9896
    6.2400     3.0024
    6.2600     3.0154
    6.2800     3.0286
    6.3000     3.0415
    6.3200     3.0546
    6.3400     3.0676
    6.3600     3.0804
    6.3800     3.0936
    6.4000     3.1066
    6.4200     3.1195
    6.4400     3.1324
    6.4600     3.1454
    6.4800     3.1584
    6.5000     3.1714
    6.5200     3.1844
    6.5400     3.1974
    6.5600     3.2103
    6.5800     3.2234
    6.6000     3.2364
    6.6200     3.2495
    6.6400     3.2624
    6.6600     3.2755
    6.6800     3.2885
    6.7000     3.3016
    6.7200     3.3147
    6.7400     3.3277
    6.7600     3.3406
    6.7800     3.3538
    6.8000     3.3668
    6.8200     3.3800
    6.8400     3.3932
    6.8600     3.4063
    6.8800     3.4195
    6.9000     3.4326
    6.9200     3.4459
    6.9400     3.4589
    6.9600     3.4721
    6.9800     3.4853
    7.0000     3.4985
    7.0200     3.5134
    7.0400     3.5277
    7.0600     3.5398
    7.0800     3.5530
    7.1000     3.5673
    7.1200     3.5795
    7.1400     3.5929
    7.1600     3.6062
    7.1800     3.6194
    7.2000     3.6325
    7.2200     3.6458
    7.2400     3.6593
    7.2600     3.6725
    7.2800     3.6838
    7.3000     3.6991
    7.3200     3.7124
    7.3400     3.7259
    7.3600     3.7391
    7.3800     3.7524
    7.4000     3.7657
    7.4200     3.7784
    7.4400     3.7921
    7.4600     3.8054
    7.4800     3.8187
    7.5000     3.8310
    7.5200     3.8452
    7.5400     3.8586
    7.5600     3.8717
    7.5800     3.8844
    7.6000     3.8977
    7.6200     3.9110
    7.6400     3.9246
    7.6600     3.9379
    7.6800     3.9513
    7.7000     3.9646
    7.7200     3.9779
    7.7400     3.9914
    7.7600     4.0047
    7.7800     4.0181
    7.8000     4.0314
    7.8200     4.0447
    7.8400     4.0583
    7.8600     4.0717
    7.8800     4.0851
    7.9000     4.0985
    7.9200     4.1118
    7.9400     4.1252
    7.9600     4.1386
    7.9800     4.1521
    8.0000     4.1655
    8.0200     4.1791
    8.0400     4.1925
    8.0600     4.2061
    8.0800     4.2196
    8.1000     4.2332
    8.1200     4.2466
    8.1400     4.2602
    8.1600     4.2737
    8.1800     4.2872
    8.2000     4.3007
    8.2200     4.3142
    8.2400     4.3276
    8.2600     4.3411
    8.2800     4.3546
    8.3000     4.3681
    8.3200     4.3816
    8.3400     4.3950
    8.3600     4.4085
    8.3800     4.4219
    8.4000     4.4354
    8.4200     4.4488
    8.4400     4.4623
    8.4600     4.4757
    8.4800     4.4892
    8.5000     4.5025
    8.5200     4.5160
    8.5400     4.5294
    8.5600     4.5429
    8.5800     4.5563
    8.6000     4.5698
    8.6200     4.5831
    8.6400     4.5966
    8.6600     4.6101
    8.6800     4.6235
    8.7000     4.6370
    8.7200     4.6503
    8.7400     4.6638
    8.7600     4.6772
    8.7800     4.6907
    8.8000     4.7041
    8.8200     4.7176
    8.8400     4.7310
    8.8600     4.7445
    8.8800     4.7579
    8.9000     4.7714
    8.9200     4.7848
    8.9400     4.7983
    8.9600     4.8118
    8.9800     4.8253
    9.0000     4.8388
    9.0200     4.8522
    9.0400     4.8658
    9.0600     4.8792
    9.0800     4.8927
    9.1000     4.9062
    9.1200     4.9197
    9.1400     4.9332
    9.1600     4.9468
    9.1800     4.9602
    9.2000     4.9738
    9.2200     4.9873
    9.2400     5.0009
    9.2600     5.0144
    9.2800     5.0279
    9.3000     5.0415
    9.3200     5.0550
    9.3400     5.0687
    9.3600     5.0822
    9.3800     5.0958
    9.4000     5.1093
    9.4200     5.1230
    9.4400     5.1365
    9.4600     5.1501
    9.4800     5.1637
    9.5000     5.1774
    9.5200     5.1909
    9.5400     5.2046
    9.5600     5.2182
    9.5800     5.2319
    9.6000     5.2456
    9.6200     5.2591
    9.6400     5.2728
    9.6600     5.2865
    9.6800     5.3002
    9.7000     5.3138
    9.7200     5.3275
    9.7400     5.3411
    9.7600     5.3549
    9.7800     5.3685
    9.8000     5.3823
    9.8200     5.3959
    9.8400     5.4097
    9.8600     5.4234
    9.8800     5.4372
    9.9000     5.4509
    9.9200     5.4646
    9.9400     5.4784
    9.9600     5.4921
    9.9800     5.5059
   10.0000     5.5196
   10.0200     5.5334
   10.0400     5.5471
   10.0600     5.5610
   10.0800     5.5747
   10.1000     5.5885
   10.1200     5.6023
   10.1400     5.6161
   10.1600     5.6299
   10.1800     5.6437
   10.2000     5.6576
   10.2200     5.6713
   10.2400     5.6852
   10.2600     5.6990
   10.2800     5.7128
   10.3000     5.7266
   10.3200     5.7405
   10.3400     5.7543
   10.3600     5.7682
   10.3800     5.7819
   10.4000     5.7958
   10.4200     5.8096
   10.4400     5.8235
   10.4600     5.8373
   10.4800     5.8512
   10.5000     5.8651
   10.5200     5.8790
   10.5400     5.8929
   10.5600     5.9067
   10.5800     5.9206
   10.6000     5.9344
   10.6200     5.9483
   10.6400     5.9622
   10.6600     5.9761
   10.6800     5.9899
   10.7000     6.0038
   10.7200     6.0177
   10.7400     6.0316
   10.7600     6.0454
   10.7800     6.0593
   10.8000     6.0732
   10.8200     6.0871
   10.8400     6.1011
   10.8600     6.1149
   10.8800     6.1288
   10.9000     6.1427
   10.9200     6.1566
   10.9400     6.1704
   10.9600     6.1844
   10.9800     6.1982
   11.0000     6.2122
   11.0200     6.2260
   11.0400     6.2399
   11.0600     6.2538
   11.0800     6.2677
   11.1000     6.2816
   11.1200     6.2955
   11.1400     6.3094
   11.1600     6.3233
   11.1800     6.3372
   11.2000     6.3511
   11.2200     6.3650
   11.2400     6.3788
   11.2600     6.3928
   11.2800     6.4066
   11.3000     6.4206
   11.3200     6.4344
   11.3400     6.4483
   11.3600     6.4622
   11.3800     6.4761
   11.4000     6.4899
   11.4200     6.5039
   11.4400     6.5178
   11.4600     6.5316
   11.4800     6.5456
   11.5000     6.5594
   11.5200     6.5734
   11.5400     6.5872
   11.5600     6.6011
   11.5800     6.6149
   11.6000     6.6289
   11.6200     6.6427
   11.6400     6.6566
   11.6600     6.6705
   11.6800     6.6844
   11.7000     6.6982
   11.7200     6.7122
   11.7400     6.7260
   11.7600     6.7399
   11.7800     6.7538
   11.8000     6.7677
   11.8200     6.7816
   11.8400     6.7954
   11.8600     6.8093
   11.8800     6.8231
   11.9000     6.8371
   11.9200     6.8509
   11.9400     6.8648
   11.9600     6.8786
   11.9800     6.8925
   12.0000     6.9064
   12.0200     6.9203
   12.0400     6.9341
   12.0600     6.9480
   12.0800     6.9619
   12.1000     6.9757
   12.1200     6.9897
   12.1400     7.0035
   12.1600     7.0174
   12.1800     7.0312
   12.2000     7.0451
   12.2200     7.0589
   12.2400     7.0728
   12.2600     7.0866
   12.2800     7.1005
   12.3000     7.1143
   12.3200     7.1282
   12.3400     7.1420
   12.3600     7.1559
   12.3800     7.1699
   12.4000     7.1837
   12.4200     7.1976
   12.4400     7.2113
   12.4600     7.2253
   12.4800     7.2391
   12.5000     7.2530
   12.5200     7.2667
   12.5400     7.2806
   12.5600     7.2944
   12.5800     7.3083
   12.6000     7.3221
   12.6200     7.3360
   12.6400     7.3498
   12.6600     7.3637
   12.6800     7.3775
   12.7000     7.3914
   12.7200     7.4053
   12.7400     7.4191
   12.7600     7.4330
   12.7800     7.4468
   12.8000     7.4606
   12.8200     7.4744
   12.8400     7.4883
   12.8600     7.5021
   12.8800     7.5160
   12.9000     7.5298
   12.9200     7.5437
   12.9400     7.5574
   12.9600     7.5713
   12.9800     7.5851
   13.0000     7.5990
   13.0200     7.6129
   13.0400     7.6266
   13.0600     7.6405
   13.0800     7.6543
   13.1000     7.6682
   13.1200     7.6820
   13.1400     7.6958
   13.1600     7.7096
   13.1800     7.7235
   13.2000     7.7373
   13.2200     7.7511
   13.2400     7.7649
   13.2600     7.7788
   13.2800     7.7925
   13.3000     7.8064
   13.3200     7.8203
   13.3400     7.8341
   13.3600     7.8479
   13.3800     7.8617
   13.4000     7.8756
   13.4200     7.8893
   13.4400     7.9032
   13.4600     7.9170
   13.4800     7.9308
   13.5000     7.9446
   13.5200     7.9584
   13.5400     7.9722
   13.5600     7.9861
   13.5800     7.9998
   13.6000     8.0137
   13.6200     8.0275
   13.6400     8.0413
   13.6600     8.0552
   13.6800     8.0689
   13.7000     8.0828
   13.7200     8.0965
   13.7400     8.1104
   13.7600     8.1242
   13.7800     8.1380
   13.8000     8.1518
   13.8200     8.1656
   13.8400     8.1794
   13.8600     8.1932
   13.8800     8.2070
   13.9000     8.2208
   13.9200     8.2346
   13.9400     8.2484
   13.9600     8.2623
   13.9800     8.2760
   14.0000     8.2899
   14.0200     8.3036
   14.0400     8.3175
   14.0600     8.3312
   14.0800     8.3451
   14.1000     8.3588
   14.1200     8.3727
   14.1400     8.3864
   14.1600     8.4002
   14.1800     8.4140
   14.2000     8.4278
   14.2200     8.4416
   14.2400     8.4554
   14.2600     8.4693
   14.2800     8.4830
   14.3000     8.4968
   14.3200     8.5106
   14.3400     8.5244
   14.3600     8.5381
   14.3800     8.5520
   14.4000     8.5657
   14.4200     8.5795
   14.4400     8.5933
   14.4600     8.6071
   14.4800     8.6208
   14.5000     8.6347
   14.5200     8.6484
   14.5400     8.6622
   14.5600     8.6760
   14.5800     8.6898
   14.6000     8.7036
   14.6200     8.7174
   14.6400     8.7312
   14.6600     8.7449
   14.6800     8.7587
   14.7000     8.7725
   14.7200     8.7863
   14.7400     8.8000
   14.7600     8.8138
   14.7800     8.8276
   14.8000     8.8414
   14.8200     8.8551
   14.8400     8.8689
   14.8600     8.8826
   14.8800     8.8965
   14.9000     8.9103
   14.9200     8.9240
   14.9400     8.9378
   14.9600     8.9515
   14.9800     8.9654
   15.0000     8.9791
   15.0200     8.9929
   15.0400     9.0066
   15.0600     9.0204
   15.0800     9.0341
   15.1000     9.0479
   15.1200     9.0617
   15.1400     9.0755
   15.1600     9.0892
   15.1800     9.1030
   15.2000     9.1168
   15.2200     9.1305
   15.2400     9.1443
   15.2600     9.1580
   15.2800     9.1718
   15.3000     9.1855
   15.3200     9.1994
   15.3400     9.2131
   15.3600     9.2269
   15.3800     9.2406
   15.4000     9.2544
   15.4200     9.2681
   15.4400     9.2819
   15.4600     9.2956
   15.4800     9.3094
   15.5000     9.3232
   15.5200     9.3369
   15.5400     9.3507
   15.5600     9.3644
   15.5800     9.3782
   15.6000     9.3919
   15.6200     9.4057
   15.6400     9.4194
   15.6600     9.4332
   15.6800     9.4469
   15.7000     9.4607
   15.7200     9.4744
   15.7400     9.4881
   15.7600     9.5018
   15.7800     9.5156
   15.8000     9.5293
   15.8200     9.5431
   15.8400     9.5569
   15.8600     9.5706
   15.8800     9.5844
   15.9000     9.5981
   15.9200     9.6119
   15.9400     9.6255
   15.9600     9.6393
   15.9800     9.6530
   16.0000     9.6668
   16.0200     9.6805
   16.0400     9.6943
   16.0600     9.7080
   16.0800     9.7217
   16.1000     9.7354
   16.1200     9.7492
   16.1400     9.7630
   16.1600     9.7767
   16.1800     9.7904
   16.2000     9.8041
   16.2200     9.8179
   16.2400     9.8316
   16.2600     9.8454
   16.2800     9.8590
   16.3000     9.8728
   16.3200     9.8865
   16.3400     9.9003
   16.3600     9.9139
   16.3800     9.9277
   16.4000     9.9414
   16.4200     9.9551
   16.4400     9.9689
   16.4600     9.9826
   16.4800     9.9964
   16.5000    10.0100
   16.5200    10.0238
   16.5400    10.0375
   16.5600    10.0512
   16.5800    10.0649
   16.6000    10.0787
   16.6200    10.0923
   16.6400    10.1061
   16.6600    10.1198
   16.6800    10.1335
   16.7000    10.1472
   16.7200    10.1610
   16.7400    10.1746
   16.7600    10.1884
   16.7800    10.2021
   16.8000    10.2158
   16.8200    10.2296
   16.8400    10.2432
   16.8600    10.2570
   16.8800    10.2706
   16.9000    10.2844
   16.9200    10.2980
   16.9400    10.3118
   16.9600    10.3254
   16.9800    10.3392
   17.0000    10.3529
   17.0200    10.3666
   17.0400    10.3803
   17.0600    10.3940
   17.0800    10.4078
   17.1000    10.4214
   17.1200    10.4352
   17.1400    10.4488
   17.1600    10.4625
   17.1800    10.4763
   17.2000    10.4900
   17.2200    10.5036
   17.2400    10.5173
   17.2600    10.5309
   17.2800    10.5448
   17.3000    10.5584
   17.3200    10.5721
   17.3400    10.5857
   17.3600    10.5995
   17.3800    10.6133
   17.4000    10.6269
   17.4200    10.6407
   17.4400    10.6543
   17.4600    10.6680
   17.4800    10.6817
   17.5000    10.6954
   17.5200    10.7090
   17.5400    10.7228
   17.5600    10.7364
   17.5800    10.7501
   17.6000    10.7638
   17.6200    10.7775
   17.6400    10.7912
   17.6600    10.8048
   17.6800    10.8185
   17.7000    10.8322
   17.7200    10.8460
   17.7400    10.8596
   17.7600    10.8733
   17.7800    10.8869
   17.8000    10.9007
   17.8200    10.9143
   17.8400    10.9281
   17.8600    10.9416
   17.8800    10.9554
   17.9000    10.9690
   17.9200    10.9827
   17.9400    10.9963
   17.9600    11.0101
   17.9800    11.0237
   18.0000    11.0374
   18.0200    11.0512
   18.0400    11.0647
   18.0600    11.0785
   18.0800    11.0921
   18.1000    11.1058
   18.1200    11.1194
   18.1400    11.1332
   18.1600    11.1467
   18.1800    11.1605
   18.2000    11.1741
   18.2200    11.1878
   18.2400    11.2014
   18.2600    11.2151
   18.2800    11.2288
   18.3000    11.2425
   18.3200    11.2561
   18.3400    11.2698
   18.3600    11.2835
   18.3800    11.2971
   18.4000    11.3107
   18.4200    11.3244
   18.4400    11.3381
   18.4600    11.3517
   18.4800    11.3654
   18.5000    11.3791
   18.5200    11.3928
   18.5400    11.4063
   18.5600    11.4200
   18.5800    11.4336
   18.6000    11.4473
   18.6200    11.4609
   18.6400    11.4746
   18.6600    11.4883
   18.6800    11.5019
   18.7000    11.5156
   18.7200    11.5292
   18.7400    11.5429
   18.7600    11.5565
   18.7800    11.5702
   18.8000    11.5838
   18.8200    11.5975
   18.8400    11.6111
   18.8600    11.6248
   18.8800    11.6384
   18.9000    11.6521
   18.9200    11.6656
   18.9400    11.6793
   18.9600    11.6930
   18.9800    11.7067
   19.0000    11.7204
   19.0200    11.7339
   19.0400    11.7476
   19.0600    11.7612
   19.0800    11.7749
   19.1000    11.7884
   19.1200    11.8022
   19.1400    11.8158
   19.1600    11.8294
   19.1800    11.8430
   19.2000    11.8566
   19.2200    11.8703
   19.2400    11.8839
   19.2600    11.8976
   19.2800    11.9112
   19.3000    11.9249
   19.3200    11.9385
   19.3400    11.9521
   19.3600    11.9658
   19.3800    11.9794
   19.4000    11.9929
   19.4200    12.0067
   19.4400    12.0202
   19.4600    12.0339
   19.4800    12.0475
   19.5000    12.0611
   19.5200    12.0747
   19.5400    12.0884
   19.5600    12.1019
   19.5800    12.1156
   19.6000    12.1293
   19.6200    12.1429
   19.6400    12.1565
   19.6600    12.1700
   19.6800    12.1838
   19.7000    12.1973
   19.7200    12.2110
   19.7400    12.2245
   19.7600    12.2382
   19.7800    12.2517
   19.8000    12.2654
   19.8200    12.2790
   19.8400    12.2926
   19.8600    12.3063
   19.8800    12.3199
   19.9000    12.3336
   19.9200    12.3471
   19.9400    12.3608
   19.9600    12.3743
   19.9800    12.3879
   20.0000    12.4015
